Id;Texec;expectedH;realH;timedOutRounds;neededMessages;processedMessages;initialV;endingV
0;5.3977570607416E7;9;9;0;32;50;0.0;0.0
1;5.397776079725E7;9;9;0;32;50;0.0;0.0
2;5.397791100825E7;9;9;0;32;50;0.0;0.0
3;5.3978157734166E7;9;9;0;32;50;0.0;0.0
4;5.3978358459458E7;9;9;0;32;50;0.0;0.0
5;5.3978561133375E7;9;9;0;32;49;0.0;0.0
6;5.3978709773041E7;10;10;0;36;50;0.0;0.0
7;5.3978909625375E7;9;9;0;32;50;0.0;0.0
8;5.3979070291333E7;9;9;0;32;50;0.0;0.0
9;5.3979237901958E7;9;9;0;32;50;0.0;0.0
10;5.3979426435958E7;9;9;0;32;50;0.0;0.0
11;5.3979572298833E7;9;9;0;32;50;0.0;0.0
12;5.3979743274416E7;9;9;0;32;49;0.0;0.0
13;5.39798971655E7;10;10;0;36;50;0.0;0.0
14;5.3980028732583E7;10;10;0;36;50;0.0;0.0
15;5.3980168844E7;10;10;0;36;49;0.0;0.0
16;5.3980311307708E7;10;10;0;36;49;0.0;0.0
17;5.3980469640958E7;10;10;0;36;50;0.0;0.0
18;5.3980624209791E7;10;10;0;36;50;0.0;0.0
19;5.3980771164083E7;9;9;0;32;50;0.0;0.0
20;5.3980909462708E7;10;10;0;36;50;0.0;0.0
21;5.398104492125E7;9;9;0;32;50;0.0;0.0
22;5.3981211707083E7;10;10;0;36;49;0.0;0.0
23;5.3981358669625E7;9;9;0;32;49;0.0;0.0
24;5.3981519232083E7;9;9;0;32;50;0.0;0.0
25;5.3981666112333E7;9;9;0;32;49;0.0;0.0
26;5.3981871597625E7;9;9;0;32;50;0.0;0.0
27;5.3982032801791E7;10;10;0;36;50;0.0;0.0
28;5.3982159468583E7;9;9;0;32;49;0.0;0.0
29;5.3982295365958E7;9;9;0;32;50;0.0;0.0
30;5.3982442385333E7;10;10;0;36;50;0.0;0.0
31;5.3982592688166E7;9;9;0;32;50;0.0;0.0
32;5.3982744822083E7;10;10;0;36;50;0.0;0.0
33;5.3982882808958E7;9;9;0;32;50;0.0;0.0
34;5.3983033469125E7;9;9;0;32;50;0.0;0.0
35;5.3983173715291E7;9;9;0;32;49;0.0;0.0
36;5.3983306888125E7;9;9;0;32;49;0.0;0.0
37;5.3983443983625E7;9;9;0;32;49;0.0;0.0
38;5.3983595750166E7;9;9;0;32;50;0.0;0.0
39;5.398374423075E7;10;10;0;36;50;0.0;0.0
40;5.3983888521416E7;9;9;0;32;50;0.0;0.0
41;5.3984055749208E7;10;10;0;36;50;0.0;0.0
42;5.3984189254708E7;10;10;0;36;49;0.0;0.0
43;5.3984321239666E7;9;9;0;32;50;0.0;0.0
44;5.3984452435541E7;9;9;0;32;50;0.0;0.0
45;5.3984627743041E7;9;9;0;32;49;0.0;0.0
46;5.3984761342958E7;10;10;0;36;49;0.0;0.0
47;5.3984898876291E7;10;10;0;36;49;0.0;0.0
48;5.3985046879E7;9;9;0;32;50;0.0;0.0
49;5.3985191129333E7;9;9;0;32;49;0.0;0.0
50;5.398533087325E7;10;10;0;36;50;0.0;0.0
51;5.3985483455083E7;10;10;0;36;50;0.0;0.0
52;5.3985632806375E7;9;9;0;32;50;0.0;0.0
53;5.3985778245833E7;10;10;0;36;50;0.0;0.0
54;5.3985918207708E7;10;10;0;36;50;0.0;0.0
55;5.3986046642458E7;9;9;0;32;50;0.0;0.0
56;5.3986175692125E7;9;9;0;32;50;0.0;0.0
57;5.3986303371333E7;10;10;0;36;50;0.0;0.0
58;5.3986423372625E7;9;9;0;32;45;0.0;0.0
59;5.3986563547375E7;9;9;0;32;50;0.0;0.0
60;5.3986693518583E7;10;10;0;36;49;0.0;0.0
61;5.3986831726541E7;9;9;0;32;50;0.0;0.0
62;5.3986973625041E7;9;9;0;32;50;0.0;0.0
63;5.3987113577375E7;9;9;0;32;49;0.0;0.0
64;5.3987259598541E7;9;9;0;32;50;0.0;0.0
65;5.3987424997416E7;10;10;0;36;50;0.0;0.0
66;5.3987551425041E7;10;10;0;36;50;0.0;0.0
67;5.39876792235E7;10;10;0;36;50;0.0;0.0
68;5.398780079475E7;9;9;0;32;49;0.0;0.0
69;5.3987924744625E7;9;9;0;32;49;0.0;0.0
70;5.3988046968166E7;10;10;0;36;50;0.0;0.0
71;5.3988170529333E7;9;9;0;32;50;0.0;0.0
72;5.398829179075E7;10;10;0;36;50;0.0;0.0
73;5.3988417739208E7;10;10;0;36;50;0.0;0.0
74;5.3988535395833E7;9;9;0;32;50;0.0;0.0
75;5.3988661438333E7;10;10;0;36;50;0.0;0.0
76;5.3988799358791E7;9;9;0;32;50;0.0;0.0
77;5.3988916691666E7;9;9;0;32;49;0.0;0.0
78;5.3989051267166E7;10;10;0;36;50;0.0;0.0
79;5.3989169761666E7;10;10;0;36;50;0.0;0.0
80;5.3989299788291E7;9;9;0;32;50;0.0;0.0
81;5.3989418691791E7;9;9;0;32;49;0.0;0.0
82;5.398955381225E7;9;9;0;32;50;0.0;0.0
83;5.3989680114625E7;10;10;0;36;50;0.0;0.0
84;5.3989803142791E7;10;10;0;36;50;0.0;0.0
85;5.3989924112958E7;9;9;0;32;46;0.0;0.0
86;5.3990046382583E7;10;10;0;36;50;0.0;0.0
87;5.3990175750166E7;10;10;0;36;50;0.0;0.0
88;5.3990293402916E7;10;10;0;36;50;0.0;0.0
89;5.3990417564E7;10;10;0;36;50;0.0;0.0
90;5.3990551610375E7;9;9;0;32;50;0.0;0.0
91;5.399068007375E7;10;10;0;36;49;0.0;0.0
92;5.3990800670375E7;9;9;0;32;50;0.0;0.0
93;5.3990929481916E7;10;10;0;36;49;0.0;0.0
94;5.39910539745E7;10;10;0;36;50;0.0;0.0
95;5.399117583775E7;10;10;0;36;50;0.0;0.0
96;5.3991298638333E7;9;9;0;32;50;0.0;0.0
97;5.3991426944041E7;9;9;0;32;50;0.0;0.0
98;5.3991560225291E7;9;9;0;32;49;0.0;0.0
99;5.3991686514333E7;10;10;0;36;50;0.0;0.0
100;5.3991808668916E7;10;10;0;36;50;0.0;0.0
101;5.3991936763708E7;10;10;0;40;50;0.0;0.0
102;5.399205043775E7;9;9;0;32;50;0.0;0.0
103;5.3992172479291E7;9;9;0;32;46;0.0;0.0
104;5.399228620275E7;10;10;0;36;49;0.0;0.0
105;5.3992441341625E7;9;9;0;32;50;0.0;0.0
106;5.3992565541666E7;9;9;0;32;47;0.0;0.0
107;5.3992685677916E7;10;10;0;36;50;0.0;0.0
108;5.3992807438333E7;10;10;0;36;50;0.0;0.0
109;5.3992935566916E7;10;10;0;36;49;0.0;0.0
110;5.3993058354666E7;10;10;0;36;50;0.0;0.0
111;5.399317913625E7;9;9;0;32;50;0.0;0.0
112;5.3993311368E7;10;10;0;36;50;0.0;0.0
113;5.3993431853875E7;10;10;0;36;49;0.0;0.0
114;5.3993549636916E7;10;10;0;36;50;0.0;0.0
115;5.3993676072083E7;10;10;0;36;50;0.0;0.0
116;5.3993805826666E7;10;10;0;36;50;0.0;0.0
117;5.3993935745833E7;10;10;0;36;50;0.0;0.0
118;5.3994055743875E7;9;9;0;32;49;0.0;0.0
119;5.3994174364E7;9;9;0;32;50;0.0;0.0
120;5.3994297186875E7;10;10;0;36;50;0.0;0.0
121;5.399443718225E7;9;9;0;32;49;0.0;0.0
122;5.3994562076875E7;10;10;0;36;50;0.0;0.0
123;5.399468672675E7;10;10;0;36;50;0.0;0.0
124;5.3994812944541E7;10;10;0;36;50;0.0;0.0
125;5.39949397545E7;10;10;0;36;50;0.0;0.0
126;5.3995063000041E7;9;9;0;32;49;0.0;0.0
127;5.3995189764583E7;9;9;0;32;50;0.0;0.0
128;5.39953135475E7;9;9;0;32;50;0.0;0.0
129;5.3995444513291E7;9;9;0;32;49;0.0;0.0
130;5.3995567886416E7;10;10;0;36;50;0.0;0.0
131;5.3995686326041E7;10;10;0;36;49;0.0;0.0
132;5.3995804149208E7;10;10;0;36;50;0.0;0.0
133;5.3995924318416E7;10;10;0;36;49;0.0;0.0
134;5.3996058803375E7;9;9;0;32;49;0.0;0.0
135;5.3996177437583E7;10;10;0;36;50;0.0;0.0
136;5.3996298536958E7;10;10;0;36;49;0.0;0.0
137;5.3996425266958E7;10;10;0;36;50;0.0;0.0
138;5.3996551950041E7;9;9;0;32;49;0.0;0.0
139;5.3996678495291E7;9;9;0;32;50;0.0;0.0
140;5.3996806990125E7;10;10;0;36;50;0.0;0.0
141;5.3996935913833E7;10;10;0;36;50;0.0;0.0
142;5.3997076696041E7;10;10;0;36;50;0.0;0.0
143;5.3997198194291E7;10;10;0;36;50;0.0;0.0
144;5.3997320175291E7;10;10;0;36;49;0.0;0.0
145;5.3997439650333E7;9;9;0;32;50;0.0;0.0
146;5.399756486775E7;10;10;0;36;49;0.0;0.0
147;5.3997685223541E7;9;9;0;32;49;0.0;0.0
148;5.3997810395583E7;10;10;0;36;49;0.0;0.0
149;5.3997945119291E7;9;9;0;32;49;0.0;0.0
150;5.3998066248E7;9;9;0;32;50;0.0;0.0
151;5.3998184095916E7;10;10;0;36;49;0.0;0.0
152;5.3998315102708E7;9;9;0;32;50;0.0;0.0
153;5.3998438044333E7;10;10;0;36;50;0.0;0.0
154;5.3998559221375E7;10;10;0;36;50;0.0;0.0
155;5.39986883435E7;10;10;0;36;50;0.0;0.0
156;5.3998814634208E7;9;9;0;32;50;0.0;0.0
157;5.3998936359416E7;9;9;0;32;49;0.0;0.0
158;5.39990563305E7;10;10;0;36;50;0.0;0.0
159;5.3999179830708E7;9;9;0;32;50;0.0;0.0
160;5.3999309503708E7;9;9;0;32;49;0.0;0.0
161;5.3999440365291E7;10;10;0;36;50;0.0;0.0
162;5.3999566401375E7;10;10;0;36;50;0.0;0.0
163;5.3999687071E7;9;9;0;32;50;0.0;0.0
164;5.3999812245625E7;9;9;0;32;50;0.0;0.0
165;5.3999944543791E7;10;10;0;36;50;0.0;0.0
166;5.4000072875833E7;10;10;0;36;50;0.0;0.0
167;5.4000196900416E7;9;9;0;32;50;0.0;0.0
168;5.4000323755958E7;9;9;0;32;50;0.0;0.0
169;5.4000461395041E7;10;10;0;36;50;0.0;0.0
170;5.4000581308125E7;9;9;0;32;50;0.0;0.0
171;5.4000706562166E7;10;10;0;36;50;0.0;0.0
172;5.4000830293708E7;9;9;0;32;49;0.0;0.0
173;5.4000947304916E7;10;10;0;36;49;0.0;0.0
174;5.4001071712916E7;10;10;0;36;50;0.0;0.0
175;5.4001193208375E7;9;9;0;32;49;0.0;0.0
176;5.4001317318625E7;10;10;0;36;50;0.0;0.0
177;5.4001448666333E7;9;9;0;32;46;0.0;0.0
178;5.40015827585E7;9;9;0;32;50;0.0;0.0
179;5.4001705541416E7;10;10;0;36;49;0.0;0.0
180;5.4001825151458E7;9;9;0;32;49;0.0;0.0
181;5.4001942391208E7;9;9;0;32;50;0.0;0.0
182;5.4002074146708E7;10;10;0;36;50;0.0;0.0
183;5.400219536825E7;9;9;0;32;50;0.0;0.0
184;5.4002318360791E7;9;9;0;32;50;0.0;0.0
185;5.4002449988375E7;9;9;0;32;50;0.0;0.0
186;5.4002574026083E7;10;10;0;36;50;0.0;0.0
187;5.40026972875E7;10;10;0;36;50;0.0;0.0
188;5.4002821468833E7;10;10;0;36;50;0.0;0.0
189;5.40029451335E7;9;9;0;32;50;0.0;0.0
190;5.400307156425E7;10;10;0;36;50;0.0;0.0
191;5.40031917775E7;9;9;0;32;50;0.0;0.0
192;5.4003325074458E7;9;9;0;32;50;0.0;0.0
193;5.400346349325E7;10;10;0;36;49;0.0;0.0
194;5.400358574525E7;10;10;0;36;50;0.0;0.0
195;5.4003711793166E7;9;9;0;32;50;0.0;0.0
196;5.4003834690333E7;10;10;0;36;50;0.0;0.0
197;5.400395650125E7;9;9;0;32;50;0.0;0.0
198;5.4004087157083E7;10;10;0;36;50;0.0;0.0
199;5.4004213152916E7;9;9;0;32;49;0.0;0.0
200;5.400433498975E7;10;10;0;36;49;0.0;0.0
201;5.4004453282166E7;10;10;0;36;50;0.0;0.0
202;5.4004588623125E7;10;10;0;36;50;0.0;0.0
203;5.4004707885833E7;10;10;0;36;50;0.0;0.0
204;5.4004829518791E7;9;9;0;32;50;0.0;0.0
205;5.400495254775E7;9;9;0;32;50;0.0;0.0
206;5.4005091894333E7;9;9;0;32;50;0.0;0.0
207;5.4005220795875E7;10;10;0;36;50;0.0;0.0
208;5.4005353265541E7;10;10;0;36;49;0.0;0.0
209;5.4005469910375E7;10;10;0;36;50;0.0;0.0
210;5.4005588781583E7;9;9;0;32;50;0.0;0.0
211;5.4005721612E7;10;10;0;36;50;0.0;0.0
212;5.4005840979541E7;9;9;0;32;49;0.0;0.0
213;5.400596256175E7;10;10;0;36;49;0.0;0.0
214;5.4006083592333E7;10;10;0;36;50;0.0;0.0
215;5.4006215480208E7;9;9;0;32;50;0.0;0.0
216;5.4006332612625E7;9;9;0;32;49;0.0;0.0
217;5.4006457765458E7;10;10;0;36;49;0.0;0.0
218;5.4006584166625E7;9;9;0;32;50;0.0;0.0
219;5.400670936375E7;10;10;0;36;50;0.0;0.0
220;5.400683492675E7;10;10;0;36;50;0.0;0.0
221;5.4006956075E7;9;9;0;32;50;0.0;0.0
222;5.4007081337041E7;10;10;0;36;50;0.0;0.0
223;5.4007208268E7;9;9;0;32;49;0.0;0.0
224;5.4007333733166E7;9;9;0;32;50;0.0;0.0
225;5.4007457106583E7;9;9;0;32;50;0.0;0.0
226;5.4007759592625E7;9;9;0;32;50;0.0;0.0
227;5.400788400325E7;9;9;0;32;50;0.0;0.0
228;5.40080255065E7;10;10;0;36;50;0.0;0.0
229;5.4008147285375E7;10;10;0;36;50;0.0;0.0
230;5.4008273685916E7;9;9;0;32;50;0.0;0.0
231;5.4008400893541E7;10;10;0;36;50;0.0;0.0
232;5.4008529290416E7;10;10;0;36;50;0.0;0.0
233;5.4008651148208E7;9;9;0;32;50;0.0;0.0
234;5.4008782818083E7;9;9;0;32;50;0.0;0.0
235;5.40089087535E7;9;9;0;32;49;0.0;0.0
236;5.4009035997833E7;10;10;0;36;49;0.0;0.0
237;5.4009167831291E7;10;10;0;36;50;0.0;0.0
238;5.4009297142375E7;9;9;0;32;50;0.0;0.0
239;5.4009429346291E7;10;10;0;36;50;0.0;0.0
240;5.4009554472458E7;9;9;0;32;50;0.0;0.0
241;5.4009679550416E7;9;9;0;32;49;0.0;0.0
242;5.4009806858166E7;10;10;0;36;50;0.0;0.0
243;5.4009933834916E7;9;9;0;32;50;0.0;0.0
244;5.4010077420541E7;10;10;0;36;50;0.0;0.0
245;5.4010210238291E7;10;10;0;36;50;0.0;0.0
246;5.4010334210125E7;10;10;0;36;50;0.0;0.0
247;5.4010471966125E7;10;10;0;36;50;0.0;0.0
248;5.4010603970958E7;9;9;0;32;50;0.0;0.0
249;5.401072396225E7;9;9;0;32;50;0.0;0.0
250;5.40108534265E7;10;10;0;36;50;0.0;0.0
251;5.4010980137333E7;10;10;0;36;50;0.0;0.0
252;5.4011108186333E7;9;9;0;32;50;0.0;0.0
253;5.4011230947333E7;10;10;0;36;50;0.0;0.0
254;5.4011357166291E7;10;10;0;36;50;0.0;0.0
255;5.4011488506791E7;10;10;0;36;49;0.0;0.0
256;5.4011609439208E7;10;10;0;36;50;0.0;0.0
257;5.40117319845E7;9;9;0;32;49;0.0;0.0
258;5.4011852379E7;10;10;0;36;50;0.0;0.0
259;5.40119794035E7;10;10;0;36;50;0.0;0.0
260;5.4012107235041E7;9;9;0;32;50;0.0;0.0
261;5.4012235120958E7;9;9;0;32;50;0.0;0.0
262;5.4012352709791E7;9;9;0;32;50;0.0;0.0
263;5.4012468565166E7;10;10;0;36;50;0.0;0.0
264;5.4012591224583E7;10;10;0;36;50;0.0;0.0
265;5.4012716504208E7;10;10;0;36;50;0.0;0.0
266;5.4012851130666E7;9;9;0;32;50;0.0;0.0
267;5.4012980829708E7;10;10;0;36;50;0.0;0.0
268;5.4013103406541E7;9;9;0;32;50;0.0;0.0
269;5.401323190375E7;9;9;0;32;50;0.0;0.0
270;5.4013356187208E7;9;9;0;32;50;0.0;0.0
271;5.4013479641666E7;10;10;0;36;50;0.0;0.0
272;5.4013605657625E7;10;10;0;36;50;0.0;0.0
273;5.4013727978541E7;10;10;0;36;50;0.0;0.0
274;5.4013856196208E7;10;10;0;36;50;0.0;0.0
275;5.4013982184458E7;10;10;0;36;50;0.0;0.0
276;5.4014105053916E7;9;9;0;32;50;0.0;0.0
277;5.40142304825E7;9;9;0;32;50;0.0;0.0
278;5.4014378291875E7;10;10;0;36;50;0.0;0.0
279;5.4014495442833E7;9;9;0;32;50;0.0;0.0
280;5.401461954525E7;10;10;0;36;50;0.0;0.0
281;5.4014740180916E7;10;10;0;36;50;0.0;0.0
282;5.4014864855833E7;10;10;0;36;50;0.0;0.0
283;5.4015002970875E7;10;10;0;36;50;0.0;0.0
284;5.4015122978791E7;10;10;0;36;49;0.0;0.0
285;5.4015243904166E7;10;10;0;36;50;0.0;0.0
286;5.4015371722125E7;10;10;0;36;50;0.0;0.0
287;5.4015494511416E7;10;10;0;36;49;0.0;0.0
288;5.4015615012666E7;9;9;0;32;50;0.0;0.0
289;5.4015737273E7;10;10;0;36;50;0.0;0.0
290;5.4015863528791E7;9;9;0;32;50;0.0;0.0
291;5.4015991861208E7;9;9;0;32;50;0.0;0.0
292;5.4016123998625E7;10;10;0;36;50;0.0;0.0
293;5.4016244351333E7;9;9;0;32;50;0.0;0.0
294;5.4016362349E7;10;10;0;36;50;0.0;0.0
295;5.4016483507333E7;9;9;0;32;50;0.0;0.0
296;5.4016613715833E7;10;10;0;36;50;0.0;0.0
297;5.4016736443958E7;9;9;0;32;50;0.0;0.0
298;5.401686226975E7;9;9;0;32;50;0.0;0.0
299;5.4016990816291E7;10;10;0;36;50;0.0;0.0
